#Columns:
#1. mass (M_solar)
#2. cumulative number density of halos [comoving Mpc^-3]
#3. (dn/dM)*dM (differential number density of halos) [comoving Mpc^-3]
5.623413e+11	1.607510e-03	2.113856e-05
5.704926e+11	1.586371e-03	2.086839e-05
5.787620e+11	1.565503e-03	2.060167e-05
5.871513e+11	1.544901e-03	2.033838e-05
5.956621e+11	1.524563e-03	2.007846e-05
6.042964e+11	1.504484e-03	1.982178e-05
6.130558e+11	1.484662e-03	1.956830e-05
6.219422e+11	1.465094e-03	1.931806e-05
6.309573e+11	1.445776e-03	1.907106e-05
6.401032e+11	1.426705e-03	1.882721e-05
6.493816e+11	1.407878e-03	1.858638e-05
6.587946e+11	1.389291e-03	1.834856e-05
6.683439e+11	1.370943e-03	1.811378e-05
6.780317e+11	1.352829e-03	1.788206e-05
6.878599e+11	1.334947e-03	1.765328e-05
6.978306e+11	1.317294e-03	1.742732e-05
7.079458e+11	1.299866e-03	1.720417e-05
7.182076e+11	1.282662e-03	1.698391e-05
7.286182e+11	1.265678e-03	1.676652e-05
7.391796e+11	1.248912e-03	1.655187e-05
7.498942e+11	1.232360e-03	1.633985e-05
7.607641e+11	1.216020e-03	1.613048e-05
7.717915e+11	1.199890e-03	1.592384e-05
7.829788e+11	1.183966e-03	1.571989e-05
7.943282e+11	1.168246e-03	1.551848e-05
8.058422e+11	1.152727e-03	1.531953e-05
8.175230e+11	1.137408e-03	1.512310e-05
8.293732e+11	1.122285e-03	1.492924e-05
8.413951e+11	1.107356e-03	1.473788e-05
8.535913e+11	1.092618e-03	1.454889e-05
8.659643e+11	1.078069e-03	1.436222e-05
8.785167e+11	1.063707e-03	1.417793e-05
8.912509e+11	1.049529e-03	1.399605e-05
9.041698e+11	1.035533e-03	1.381650e-05
9.172759e+11	1.021716e-03	1.363916e-05
9.305720e+11	1.008077e-03	1.346401e-05
9.440609e+11	9.946129e-04	1.329111e-05
9.577452e+11	9.813218e-04	1.312046e-05
9.716280e+11	9.682014e-04	1.295198e-05
9.857119e+11	9.552494e-04	1.278558e-05
1.000000e+12	9.424638e-04	1.262124e-05
1.014495e+12	9.298426e-04	1.245902e-05
1.029201e+12	9.173835e-04	1.229890e-05
1.044119e+12	9.050846e-04	1.214082e-05
1.059254e+12	8.929438e-04	1.198468e-05
1.074608e+12	8.809591e-04	1.183048e-05
1.090184e+12	8.691286e-04	1.167827e-05
1.105987e+12	8.574504e-04	1.152805e-05
1.122018e+12	8.459223e-04	1.137972e-05
1.138282e+12	8.345426e-04	1.123320e-05
1.154782e+12	8.233094e-04	1.108851e-05
1.171521e+12	8.122209e-04	1.094571e-05
1.188502e+12	8.012752e-04	1.080475e-05
1.205730e+12	7.904704e-04	1.066557e-05
1.223207e+12	7.798049e-04	1.052808e-05
1.240938e+12	7.692768e-04	1.039232e-05
1.258925e+12	7.588845e-04	1.025834e-05
1.277174e+12	7.486261e-04	1.012608e-05
1.295687e+12	7.385000e-04	9.995471e-06
1.314468e+12	7.285046e-04	9.866463e-06
1.333521e+12	7.186381e-04	9.739084e-06
1.352851e+12	7.088990e-04	9.613367e-06
1.372461e+12	6.992857e-04	9.489272e-06
1.392355e+12	6.897964e-04	9.366714e-06
1.412538e+12	6.804297e-04	9.245658e-06
1.433013e+12	6.711840e-04	9.126140e-06
1.453784e+12	6.620579e-04	9.008186e-06
1.474857e+12	6.530497e-04	8.891745e-06
1.496236e+12	6.441579e-04	8.776739e-06
1.517924e+12	6.353812e-04	8.663148e-06
1.539927e+12	6.267181e-04	8.551008e-06
1.562248e+12	6.181670e-04	8.440335e-06
1.584893e+12	6.097267e-04	8.331075e-06
1.607867e+12	6.013956e-04	8.223158e-06
1.631173e+12	5.931725e-04	8.116571e-06
1.654817e+12	5.850559e-04	8.011354e-06
1.678804e+12	5.770446e-04	7.907513e-06
1.703139e+12	5.691370e-04	7.804991e-06
1.727826e+12	5.613320e-04	7.703724e-06
1.752871e+12	5.536283e-04	7.603712e-06
1.778279e+12	5.460246e-04	7.504991e-06
1.804056e+12	5.385196e-04	7.407561e-06
1.830206e+12	5.311121e-04	7.311360e-06
1.856735e+12	5.238007e-04	7.216335e-06
1.883649e+12	5.165844e-04	7.122493e-06
1.910953e+12	5.094619e-04	7.029868e-06
1.938653e+12	5.024320e-04	6.938452e-06
1.966754e+12	4.954936e-04	6.848183e-06
1.995262e+12	4.886454e-04	6.759016e-06
2.024184e+12	4.818864e-04	6.670965e-06
2.053525e+12	4.752154e-04	6.584061e-06
2.083291e+12	4.686313e-04	6.498288e-06
2.113489e+12	4.621330e-04	6.413585e-06
2.144125e+12	4.557195e-04	6.329917e-06
2.175204e+12	4.493895e-04	6.247302e-06
2.206734e+12	4.431422e-04	6.165766e-06
2.238721e+12	4.369765e-04	6.085287e-06
2.271172e+12	4.308912e-04	6.005808e-06
2.304093e+12	4.248854e-04	5.927301e-06
2.337491e+12	4.189581e-04	5.849787e-06
2.371374e+12	4.131083e-04	5.773290e-06
2.405747e+12	4.073350e-04	5.697780e-06
2.440619e+12	4.016372e-04	5.623203e-06
2.475996e+12	3.960140e-04	5.549540e-06
2.511886e+12	3.904645e-04	5.476815e-06
2.548297e+12	3.849877e-04	5.405045e-06
2.585235e+12	3.795826e-04	5.334197e-06
2.622708e+12	3.742484e-04	5.264222e-06
2.660725e+12	3.689842e-04	5.195106e-06
2.699293e+12	3.637891e-04	5.126876e-06
2.738420e+12	3.586622e-04	5.059542e-06
2.778114e+12	3.536027e-04	4.993069e-06
2.818383e+12	3.486096e-04	4.927413e-06
2.859236e+12	3.436822e-04	4.862566e-06
2.900681e+12	3.388196e-04	4.798555e-06
2.942727e+12	3.340211e-04	4.735385e-06
2.985383e+12	3.292857e-04	4.673018e-06
3.028656e+12	3.246127e-04	4.611416e-06
3.072557e+12	3.200013e-04	4.550576e-06
3.117095e+12	3.154507e-04	4.490524e-06
3.162278e+12	3.109602e-04	4.431262e-06
3.208116e+12	3.065289e-04	4.372749e-06
3.254618e+12	3.021561e-04	4.314952e-06
3.301794e+12	2.978412e-04	4.257875e-06
3.349654e+12	2.935833e-04	4.201540e-06
3.398208e+12	2.893818e-04	4.145944e-06
3.447466e+12	2.852358e-04	4.091049e-06
3.497438e+12	2.811448e-04	4.036824e-06
3.548134e+12	2.771080e-04	3.983279e-06
3.599565e+12	2.731247e-04	3.930433e-06
3.651741e+12	2.691942e-04	3.878278e-06
3.704674e+12	2.653160e-04	3.826779e-06
3.758374e+12	2.614892e-04	3.775908e-06
3.812852e+12	2.577133e-04	3.725678e-06
3.868121e+12	2.539876e-04	3.676107e-06
3.924190e+12	2.503115e-04	3.627183e-06
3.981072e+12	2.466843e-04	3.578871e-06
4.038778e+12	2.431054e-04	3.531149e-06
4.097321e+12	2.395743e-04	3.484032e-06
4.156713e+12	2.360903e-04	3.437535e-06
4.216965e+12	2.326527e-04	3.391642e-06
4.278091e+12	2.292611e-04	3.346323e-06
4.340103e+12	2.259148e-04	3.301557e-06
4.403013e+12	2.226132e-04	3.257362e-06
4.466836e+12	2.193558e-04	3.213751e-06
4.531584e+12	2.161421e-04	3.170704e-06
4.597270e+12	2.129714e-04	3.128194e-06
4.663908e+12	2.098432e-04	3.086203e-06
4.731513e+12	2.067570e-04	3.044752e-06
4.800097e+12	2.037122e-04	3.003849e-06
4.869675e+12	2.007084e-04	2.963474e-06
4.940262e+12	1.977449e-04	2.923601e-06
5.011872e+12	1.948213e-04	2.884217e-06
5.084520e+12	1.919371e-04	2.845342e-06
5.158222e+12	1.890917e-04	2.806981e-06
5.232991e+12	1.862848e-04	2.769114e-06
5.308844e+12	1.835157e-04	2.731718e-06
5.385797e+12	1.807839e-04	2.694780e-06
5.463865e+12	1.780892e-04	2.658324e-06
5.543065e+12	1.754308e-04	2.622350e-06
5.623413e+12	1.728085e-04	2.586838e-06
5.704926e+12	1.702216e-04	2.551765e-06
5.787620e+12	1.676699e-04	2.517125e-06
5.871513e+12	1.651528e-04	2.482941e-06
5.956621e+12	1.626698e-04	2.449206e-06
6.042964e+12	1.602206e-04	2.415906e-06
6.130558e+12	1.578047e-04	2.383015e-06
6.219422e+12	1.554217e-04	2.350534e-06
6.309573e+12	1.530712e-04	2.318481e-06
6.401032e+12	1.507527e-04	2.286850e-06
6.493816e+12	1.484658e-04	2.255625e-06
6.587946e+12	1.462102e-04	2.224784e-06
6.683439e+12	1.439854e-04	2.194329e-06
6.780317e+12	1.417911e-04	2.164277e-06
6.878599e+12	1.396268e-04	2.134621e-06
6.978306e+12	1.374922e-04	2.105346e-06
7.079458e+12	1.353868e-04	2.076428e-06
7.182076e+12	1.333104e-04	2.047876e-06
7.286182e+12	1.312625e-04	2.019703e-06
7.391796e+12	1.292428e-04	1.991902e-06
7.498942e+12	1.272509e-04	1.964456e-06
7.607641e+12	1.252865e-04	1.937346e-06
7.717915e+12	1.233491e-04	1.910581e-06
7.829788e+12	1.214385e-04	1.884173e-06
7.943282e+12	1.195544e-04	1.858112e-06
8.058422e+12	1.176963e-04	1.832385e-06
8.175230e+12	1.158639e-04	1.806972e-06
8.293732e+12	1.140569e-04	1.781885e-06
8.413951e+12	1.122750e-04	1.757133e-06
8.535913e+12	1.105179e-04	1.732708e-06
8.659643e+12	1.087852e-04	1.708593e-06
8.785167e+12	1.070766e-04	1.684774e-06
8.912509e+12	1.053918e-04	1.661263e-06
9.041698e+12	1.037305e-04	1.638066e-06
9.172759e+12	1.020925e-04	1.615177e-06
9.305720e+12	1.004773e-04	1.592577e-06
9.440609e+12	9.888473e-05	1.570255e-06
9.577452e+12	9.731448e-05	1.548224e-06
9.716280e+12	9.576625e-05	1.526487e-06
9.857119e+12	9.423976e-05	1.505039e-06
1.000000e+13	9.273473e-05	1.483861e-06
1.014495e+13	9.125086e-05	1.462946e-06
1.029201e+13	8.978792e-05	1.442305e-06
1.044119e+13	8.834561e-05	1.421939e-06
1.059254e+13	8.692367e-05	1.401845e-06
1.074608e+13	8.552183e-05	1.382003e-06
1.090184e+13	8.413983e-05	1.362409e-06
1.105987e+13	8.277742e-05	1.343072e-06
1.122018e+13	8.143434e-05	1.323995e-06
1.138282e+13	8.011035e-05	1.305172e-06
1.154782e+13	7.880518e-05	1.286584e-06
1.171521e+13	7.751859e-05	1.268230e-06
1.188502e+13	7.625036e-05	1.250119e-06
1.205730e+13	7.500024e-05	1.232251e-06
1.223207e+13	7.376799e-05	1.214622e-06
1.240938e+13	7.255337e-05	1.197213e-06
1.258925e+13	7.135616e-05	1.180024e-06
1.277174e+13	7.017614e-05	1.163063e-06
1.295687e+13	6.901307e-05	1.146332e-06
1.314468e+13	6.786674e-05	1.129823e-06
1.333521e+13	6.673692e-05	1.113521e-06
1.352851e+13	6.562340e-05	1.097426e-06
1.372461e+13	6.452597e-05	1.081546e-06
1.392355e+13	6.344443e-05	1.065881e-06
1.412538e+13	6.237854e-05	1.050425e-06
1.433013e+13	6.132812e-05	1.035163e-06
1.453784e+13	6.029296e-05	1.020096e-06
1.474857e+13	5.927286e-05	1.005230e-06
1.496236e+13	5.826763e-05	9.905678e-07
1.517924e+13	5.727706e-05	9.761002e-07
1.539927e+13	5.630096e-05	9.618140e-07
1.562248e+13	5.533915e-05	9.477123e-07
1.584893e+13	5.439144e-05	9.337996e-07
1.607867e+13	5.345764e-05	9.200786e-07
1.631173e+13	5.253756e-05	9.065392e-07
1.654817e+13	5.163102e-05	8.931704e-07
1.678804e+13	5.073785e-05	8.799753e-07
1.703139e+13	4.985787e-05	8.669576e-07
1.727826e+13	4.899092e-05	8.541205e-07
1.752871e+13	4.813680e-05	8.414529e-07
1.778279e+13	4.729534e-05	8.289457e-07
1.804056e+13	4.646640e-05	8.166020e-07
1.830206e+13	4.564979e-05	8.044250e-07
1.856735e+13	4.484537e-05	7.924179e-07
1.883649e+13	4.405295e-05	7.805693e-07
1.910953e+13	4.327238e-05	7.688714e-07
1.938653e+13	4.250351e-05	7.573272e-07
1.966754e+13	4.174618e-05	7.459399e-07
1.995262e+13	4.100024e-05	7.347123e-07
2.024184e+13	4.026553e-05	7.236328e-07
2.053525e+13	3.954190e-05	7.126952e-07
2.083291e+13	3.882920e-05	7.019018e-07
2.113489e+13	3.812730e-05	6.912564e-07
2.144125e+13	3.743605e-05	6.807606e-07
2.175204e+13	3.675528e-05	6.704035e-07
2.206734e+13	3.608488e-05	6.601800e-07
2.238721e+13	3.542470e-05	6.500919e-07
2.271172e+13	3.477461e-05	6.401431e-07
2.304093e+13	3.413447e-05	6.303347e-07
2.337491e+13	3.350413e-05	6.206562e-07
2.371374e+13	3.288348e-05	6.111035e-07
2.405747e+13	3.227237e-05	6.016776e-07
2.440619e+13	3.167069e-05	5.923832e-07
2.475996e+13	3.107831e-05	5.832202e-07
2.511886e+13	3.049509e-05	5.741791e-07
2.548297e+13	2.992091e-05	5.652564e-07
2.585235e+13	2.935566e-05	5.564525e-07
2.622708e+13	2.879920e-05	5.477727e-07
2.660725e+13	2.825143e-05	5.392159e-07
2.699293e+13	2.771221e-05	5.307735e-07
2.738420e+13	2.718144e-05	5.224424e-07
2.778114e+13	2.665900e-05	5.142228e-07
2.818383e+13	2.614478e-05	5.061200e-07
2.859236e+13	2.563866e-05	4.981325e-07
2.900681e+13	2.514052e-05	4.902524e-07
2.942727e+13	2.465027e-05	4.824769e-07
2.985383e+13	2.416779e-05	4.748060e-07
3.028656e+13	2.369299e-05	4.672452e-07
3.072557e+13	2.322574e-05	4.597923e-07
3.117095e+13	2.276595e-05	4.524403e-07
3.162278e+13	2.231351e-05	4.451866e-07
3.208116e+13	2.186832e-05	4.380310e-07
3.254618e+13	2.143029e-05	4.309790e-07
3.301794e+13	2.099931e-05	4.240282e-07
3.349654e+13	2.057528e-05	4.171722e-07
3.398208e+13	2.015811e-05	4.104085e-07
3.447466e+13	1.974770e-05	4.037369e-07
3.497438e+13	1.934397e-05	3.971627e-07
3.548134e+13	1.894680e-05	3.906833e-07
3.599565e+13	1.855612e-05	3.842931e-07
3.651741e+13	1.817183e-05	3.779894e-07
3.704674e+13	1.779384e-05	3.717724e-07
3.758374e+13	1.742207e-05	3.656468e-07
3.812852e+13	1.705642e-05	3.596100e-07
3.868121e+13	1.669681e-05	3.536573e-07
3.924190e+13	1.634315e-05	3.477855e-07
3.981072e+13	1.599537e-05	3.419952e-07
4.038778e+13	1.565337e-05	3.362907e-07
4.097321e+13	1.531708e-05	3.306696e-07
4.156713e+13	1.498641e-05	3.251276e-07
4.216965e+13	1.466128e-05	3.196613e-07
4.278091e+13	1.434162e-05	3.142718e-07
4.340103e+13	1.402735e-05	3.089626e-07
4.403013e+13	1.371839e-05	3.037317e-07
4.466836e+13	1.341466e-05	2.985752e-07
4.531584e+13	1.311608e-05	2.934897e-07
4.597270e+13	1.282259e-05	2.884763e-07
4.663908e+13	1.253412e-05	2.835383e-07
4.731513e+13	1.225058e-05	2.786736e-07
4.800097e+13	1.197190e-05	2.738791e-07
4.869675e+13	1.169802e-05	2.691509e-07
4.940262e+13	1.142887e-05	2.644906e-07
5.011872e+13	1.116438e-05	2.599009e-07
5.084520e+13	1.090448e-05	2.553800e-07
5.158222e+13	1.064910e-05	2.509251e-07
5.232991e+13	1.039818e-05	2.465324e-07
5.308844e+13	1.015164e-05	2.422034e-07
5.385797e+13	9.909441e-06	2.379405e-07
5.463865e+13	9.671500e-06	2.337423e-07
5.543065e+13	9.437758e-06	2.296061e-07
5.623413e+13	9.208152e-06	2.255282e-07
5.704926e+13	8.982624e-06	2.215101e-07
5.787620e+13	8.761114e-06	2.175539e-07
5.871513e+13	8.543560e-06	2.136584e-07
5.956621e+13	8.329901e-06	2.098213e-07
6.042964e+13	8.120080e-06	2.060388e-07
6.130558e+13	7.914041e-06	2.023123e-07
6.219422e+13	7.711729e-06	1.986438e-07
6.309573e+13	7.513085e-06	1.950322e-07
6.401032e+13	7.318053e-06	1.914755e-07
6.493816e+13	7.126577e-06	1.879701e-07
6.587946e+13	6.938607e-06	1.845172e-07
6.683439e+13	6.754090e-06	1.811185e-07
6.780317e+13	6.572972e-06	1.777733e-07
6.878599e+13	6.395198e-06	1.744796e-07
6.978306e+13	6.220719e-06	1.712340e-07
7.079458e+13	6.049485e-06	1.680376e-07
7.182076e+13	5.881447e-06	1.648918e-07
7.286182e+13	5.716556e-06	1.617963e-07
7.391796e+13	5.554759e-06	1.587491e-07
7.498942e+13	5.396010e-06	1.557471e-07
7.607641e+13	5.240263e-06	1.527912e-07
7.717915e+13	5.087472e-06	1.498825e-07
7.829788e+13	4.937589e-06	1.470210e-07
7.943282e+13	4.790568e-06	1.442049e-07
8.058422e+13	4.646363e-06	1.414312e-07
8.175230e+13	4.504932e-06	1.387006e-07
8.293732e+13	4.366232e-06	1.360140e-07
8.413951e+13	4.230218e-06	1.333718e-07
8.535913e+13	4.096846e-06	1.307722e-07
8.659643e+13	3.966074e-06	1.282124e-07
8.785167e+13	3.837861e-06	1.256928e-07
8.912509e+13	3.712168e-06	1.232143e-07
9.041698e+13	3.588954e-06	1.207775e-07
9.172759e+13	3.468177e-06	1.183805e-07
9.305720e+13	3.349796e-06	1.160209e-07
9.440609e+13	3.233775e-06	1.136990e-07
9.577452e+13	3.120076e-06	1.114153e-07
9.716280e+13	3.008661e-06	1.091707e-07
9.857119e+13	2.899490e-06	1.069634e-07
1.000000e+14	2.792527e-06	1.047913e-07
1.014495e+14	2.687735e-06	1.026543e-07
1.029201e+14	2.585081e-06	1.005529e-07
1.044119e+14	2.484528e-06	9.848806e-08
1.059254e+14	2.386040e-06	9.645826e-08
1.074608e+14	2.289582e-06	9.446144e-08
1.090184e+14	2.195121e-06	9.249744e-08
1.105987e+14	2.102623e-06	9.056654e-08
1.122018e+14	2.012057e-06	8.866982e-08
1.138282e+14	1.923387e-06	8.680592e-08
1.154782e+14	1.836581e-06	8.497298e-08
1.171521e+14	1.751608e-06	8.317066e-08
1.188502e+14	1.668437e-06	8.139913e-08
1.205730e+14	1.587038e-06	7.965948e-08
1.223207e+14	1.507379e-06	7.795058e-08
1.240938e+14	1.429428e-06	7.627072e-08
1.258925e+14	1.353157e-06	7.461942e-08
1.277174e+14	1.278538e-06	7.299673e-08
1.295687e+14	1.205541e-06	7.140374e-08
1.314468e+14	1.134137e-06	6.983952e-08
1.333521e+14	1.064298e-06	6.830254e-08
1.352851e+14	9.959953e-07	6.679219e-08
1.372461e+14	9.292031e-07	6.530840e-08
1.392355e+14	8.638947e-07	6.385223e-08
1.412538e+14	8.000425e-07	6.242296e-08
1.433013e+14	7.376195e-07	6.101923e-08
1.453784e+14	6.766003e-07	5.964030e-08
1.474857e+14	6.169600e-07	5.828603e-08
1.496236e+14	5.586740e-07	5.695739e-08
1.517924e+14	5.017166e-07	5.565386e-08
1.539927e+14	4.460627e-07	5.437425e-08
1.562248e+14	3.916885e-07	5.311775e-08
1.584893e+14	3.385707e-07	5.188412e-08
1.607867e+14	2.866866e-07	5.067423e-08
1.631173e+14	2.360124e-07	4.948774e-08
1.654817e+14	1.865247e-07	4.832365e-08
1.678804e+14	1.382010e-07	4.718107e-08
1.703139e+14	9.101993e-08	4.605968e-08
1.727826e+14	4.496025e-08	4.496025e-08
